Wavelength,Excitation,Emission
300,13.21955,0
301,12.83467,0
302,12.38286,0
303,12.08166,0
304,11.84739,0
305,11.61312,0
306,11.51272,0
307,11.46252,0
308,11.47925,0
309,11.56292,0
310,11.69679,0
311,11.89759,0
312,12.08166,0
313,12.33266,0
314,12.71754,0
315,13.03547,0
316,13.40361,0
317,13.93909,0
318,14.37416,0
319,14.80924,0
320,15.39491,0
321,15.94712,0
322,16.49933,0
323,17.23561,0
324,17.88822,0
325,18.54083,0
326,19.44444,0
327,20.19746,0
328,20.917,0
329,21.87082,0
330,22.64056,0
331,23.44378,0
332,24.51473,0
333,25.28447,0
334,26.12115,0
335,27.27577,0
336,28.17938,0
337,29.0328,0
338,30.13721,0
339,30.92369,0
340,31.64324,0
341,32.53012,0
342,33.13253,0
343,33.70147,0
344,34.30388,0
345,34.72222,0
346,35.02343,0
347,35.2577,0
348,35.39157,0
349,35.57563,0
350,35.69277,0
351,35.72624,0
352,35.70951,0
353,35.59237,0
354,35.47523,0
355,35.29116,0
356,34.85609,0
357,34.47122,0
358,34.00268,0
359,33.2162,0
360,32.44645,0
361,31.60977,0
362,30.40495,0
363,29.3842,0
364,28.38019,0
365,27.02477,0
366,26.00401,0
367,25.11713,0
368,24.06292,0
369,23.39357,0
370,22.84137,0
371,22.27242,0
372,21.93775,0
373,21.63655,0
374,21.28514,0
375,20.93373,0
376,20.54886,0
377,19.84605,0
378,19.14324,0
379,18.35676,0
380,17.15194,0
381,16.08099,0
382,15.02677,0
383,13.62115,0
384,12.51673,0
385,11.52945,0
386,10.3581,0
387,9.454484,0
388,8.718206,0
389,7.848059,0
390,7.245649,0
391,6.777109,0
392,6.258367,0
393,5.873494,0
394,5.572289,0
395,5.254351,0
396,5.070281,0
397,4.902945,0
398,4.735609,0
399,4.668674,0
400,4.60174,0
401,4.501339,0
402,4.451138,0
403,4.400937,0
404,4.36747,0
405,4.36747,0
406,4.36747,0
407,4.36747,0
408,4.384203,0
409,4.384203,0
410,4.400937,0
411,4.400937,0
412,4.417671,0
413,4.451138,0
414,4.467871,0
415,4.434404,0
416,4.434404,0
417,4.434404,0
418,4.434404,0
419,4.400937,0
420,4.384203,0
421,4.317269,0
422,4.283802,0
423,4.233601,0
424,4.200134,0
425,4.1332,0
426,4.066265,0
427,4.032798,0
428,3.965863,0
429,3.898929,0
430,3.865462,0
431,3.781794,0
432,3.731593,0
433,3.664659,0
434,3.597724,0
435,3.564257,0
436,3.514056,0
437,3.480589,0
438,3.430388,0
439,3.380187,0
440,3.313253,0
441,3.263052,0
442,3.212852,0
443,3.129183,0
444,3.028782,0
445,2.978581,0
446,2.87818,0
447,2.794511,0
448,2.69411,0
449,2.593708,0
450,2.51004,0
451,2.426372,0
452,2.309237,0
453,2.208835,0
454,2.125167,0
455,2.024766,0
456,1.941098,0
457,1.874163,0
458,1.773762,0
459,1.706827,0
460,1.639893,0
461,1.556225,0
462,1.506024,0
463,1.455823,0
464,1.388889,0
465,1.338688,0
466,1.305221,0
467,1.25502,0
468,1.221553,0
469,1.204819,0
470,1.171352,0
471,1.154619,0
472,1.121151,0
473,1.104418,0
474,1.087684,0
475,1.07095,0
476,1.054217,0
477,1.02075,0
478,1.02075,0
479,1.004016,0
480,0.9872825,0
481,0.9872825,0
482,0.9872825,0
483,0.9705489,0
484,0.9538153,0
485,0.920348,0
486,0.920348,0
487,0.8868808,0
488,0.8868808,0
489,0.9036145,0
490,0.8868808,0
491,0.9036145,0
492,0.8868808,0
493,0.9036145,0
494,0.9036145,0
495,0.9036145,0
496,0.920348,0
497,0.9370816,0
498,0.9705489,0
499,0.9872825,0
500,1.02075,0
501,1.054217,0
502,1.087684,0
503,1.137885,0
504,1.171352,0
505,1.221553,0
506,1.288487,0
507,1.321954,0
508,1.372155,0
509,1.43909,0
510,1.506024,0
511,1.556225,0
512,1.639893,0
513,1.690094,0
514,1.773762,0
515,1.874163,0
516,1.941098,0
517,1.991299,0
518,2.108434,0
519,2.175368,0
520,2.259036,0
521,2.359438,0
522,2.459839,0
523,2.526774,0
524,2.643909,0
525,2.727577,0
526,2.811245,0
527,2.961847,0
528,3.062249,0
529,3.179384,0
530,3.34672,0
531,3.447122,0
532,3.580991,0
533,3.781794,0
534,3.932396,0
535,4.082999,0
536,4.300535,0
537,4.484605,0
538,4.668674,0
539,4.919679,0
540,5.120482,0
541,5.338019,0
542,5.62249,0
543,5.840026,0
544,6.074297,0
545,6.375502,0
546,6.626506,0
547,6.87751,0
548,7.195449,0
549,7.446453,0
550,7.697456,0
551,8.048862,0
552,8.283133,0
553,8.534137,0
554,8.868809,0
555,9.103079,0
556,9.337349,0
557,9.672021,0
558,9.939759,0
559,10.19076,0
560,10.5087,0
561,10.77644,0
562,11.02744,0
563,11.39558,0
564,11.68005,0
565,11.98126,0
566,12.3996,0
567,12.71754,0
568,13.06894,0
569,13.58768,0
570,13.98929,0
571,14.42436,0
572,15.07697,0
573,15.59572,0
574,16.13119,0
575,16.9344,0
576,17.57028,0
577,18.23962,0
578,19.22691,0
579,19.97992,0
580,20.7664,0
581,21.90428,0
582,22.7577,0
583,23.62785,0
584,24.8996,0
585,25.81995,0
586,26.72356,0
587,27.96185,0
588,28.81526,0
589,29.66868,0
590,30.77309,0
591,31.5261,0
592,32.24565,0
593,33.1158,0
594,33.68474,0
595,34.22021,0
596,34.85609,0
597,35.2577,0
598,35.6091,0
599,36.04417,0
600,36.27845,0
601,36.51272,0
602,36.76372,0
603,36.91432,0
604,37.04819,0
605,37.1988,0
606,37.31593,0
607,37.3996,0
608,37.53347,0
609,37.66734,0
610,37.81794,0
611,38.05221,0
612,38.28648,0
613,38.57095,0
614,39.03949,0
615,39.47456,0
616,39.97657,0
617,40.77979,0
618,41.49933,0
619,42.31928,0
620,43.60777,1.265914
621,44.69545,1.366383
622,45.90027,1.497567
623,47.74096,1.740416
624,49.23026,1.976949
625,50.83668,2.20114
626,53.21285,2.565556
627,55.12048,2.914185
628,57.17871,3.36888
629,60.14056,3.87094
630,62.3996,4.526288
631,64.7423,5.190246
632,68.13922,5.926543
633,70.68273,6.882437
634,73.29317,8.062377
635,76.9411,9.214473
636,79.60174,10.7063
637,82.24565,12.10799
638,85.80991,13.96639
639,88.30322,16.00333
640,90.67938,18.10888
641,93.67471,20.66654
642,95.58233,23.3907
643,97.18875,26.76934
644,98.86211,30.17525
645,99.63186,33.69167
646,100,37.78365
647,99.73226,42.03924
648,98.94579,45.89583
649,97.67403,50.62937
650,95.11379,54.77014
651,92.72088,59.83954
652,89.87617,64.78119
653,85.37484,70.11037
654,81.71017,74.24254
655,77.72758,79.49564
656,71.93775,83.38668
657,67.57028,88.06424
658,63.11914,90.97355
659,57.01138,93.78239
660,52.69411,96.60414
661,48.47724,98.98813
662,42.98862,99.06994
663,39.19009,99.78327
664,35.6091,100
665,31.05756,99.94977
666,28.06225,98.68098
667,25.3012,96.51945
668,21.88755,94.20722
669,19.66198,91.51321
670,17.62048,89.06464
671,15.14391,85.35014
672,13.55422,82.0002
673,12.11513,78.3833
674,10.39157,74.953
675,9.287148,71.29304
676,8.283133,68.04932
677,7.06158,64.48696
678,6.308568,61.09971
679,5.62249,57.95932
680,4.819277,54.6869
681,4.283802,51.80342
682,3.815261,49.23571
683,3.263052,46.48285
684,2.911647,43.86204
685,2.610442,41.18956
686,2.242302,39.89494
687,2.008032,37.84106
688,1.807229,35.95798
689,1.556225,34.38922
690,1.388889,32.81903
691,1.25502,31.39667
692,1.087684,30.28433
693,0.9872825,29.13324
694,0.8868808,28.25341
695,0.7697456,27.309
696,0.6860777,26.72484
697,0.6191432,25.84645
698,0.5187417,25.17331
699,0.4685408,24.90778
700,0.41834,24.31358
701,0.3514056,24.02078
702,0.3179384,23.71507
703,0.3012048,23.55862
704,0.251004,23.27444
705,0.2342704,23.10077
706,0.2175368,23.2974
707,0.2008032,22.8984
708,0.1840696,22.874
709,0.167336,22.87543
710,0.1506024,22.79362
711,0.1338688,22.95868
712,0.1338688,22.91131
713,0.1004016,22.9759
714,0.0837,22.82663
715,0.0669344,22.78645
716,0.0334672,23.0204
717,0.0334672,22.66158
718,0.0334672,22.74195
719,0.0167336,22.4793
720,0.0167336,22.59699
721,0.0167336,22.21234
722,0,22.11617
723,0,22.52092
724,-0.0167336,22.16641
725,-0.0334672,21.78606
726,-0.0502,21.49757
727,-0.0334672,21.35691
728,-0.0502,20.72395
729,-0.0502,20.45125
730,-0.0502,20.22448
731,-0.0669344,19.6475
732,-0.0669344,19.55994
733,-0.0502,19.06047
734,-0.0502,18.66002
735,-0.0502,18.12467
736,-0.0502,17.57065
737,-0.0502,17.30082
738,-0.0502,16.89751
739,-0.0502,16.1081
740,-0.0502,15.89425
741,-0.0502,15.25412
742,-0.0502,14.69149
743,-0.0334672,14.14264
744,-0.0334672,13.60728
745,-0.0334672,13.02484
746,-0.0334672,12.60115
747,-0.0502,11.91466
748,-0.0334672,11.42465
749,-0.0334672,10.93006
750,-0.0334672,10.65779
751,0,10.03746
752,0,9.843986
753,0,9.347093
754,0,8.931724
755,0,8.366512
756,0,8.307953
757,0,7.869189
758,0,7.291203
759,0,7.142078
760,0,6.839952
761,0,6.467928
762,0,6.301867
763,0,6.208144
764,0,5.647381
765,0,5.397356
766,0,5.367933
767,0,5.098101
768,0,4.911659
769,0,4.720049
770,0,4.605515
771,0,4.495285
772,0,4.457681
773,0,4.085371
774,0,4.133595
775,0,3.920457
776,0,3.783244
777,0,3.826447
778,0,3.68378
779,0,3.543266
780,0,3.582449
781,0,3.621633
782,0,3.473081
783,0,3.42055
784,0,3.264679
785,0,3.303719
786,0,3.146125
787,0,3.078955
788,0,3.01408
789,0,2.942747
790,0,2.971883
791,0,3.005181
792,0,2.929686
793,0,2.961836
794,0,2.993986
795,0,2.698319
796,0,2.730613
797,0,2.75573
798,0,2.676503
799,0,2.707505
800,0,0
801,0,0
802,0,0
803,0,0
804,0,0
805,0,0
806,0,0
807,0,0
808,0,0
809,0,0
810,0,0
811,0,0
812,0,0
813,0,0
814,0,0
815,0,0
816,0,0
817,0,0
818,0,0
819,0,0
820,0,0
821,0,0
822,0,0
823,0,0
824,0,0
825,0,0
826,0,0
827,0,0
828,0,0
829,0,0
830,0,0
831,0,0
832,0,0
833,0,0
834,0,0
835,0,0
836,0,0
837,0,0
838,0,0
839,0,0
840,0,0
841,0,0
842,0,0
843,0,0
844,0,0
845,0,0
846,0,0
847,0,0
848,0,0
849,0,0
850,0,0
851,0,0
852,0,0
853,0,0
854,0,0
855,0,0
856,0,0
857,0,0
858,0,0
859,0,0
860,0,0
861,0,0
862,0,0
863,0,0
864,0,0
865,0,0
866,0,0
867,0,0
868,0,0
869,0,0
870,0,0
871,0,0
872,0,0
873,0,0
874,0,0
875,0,0
876,0,0
877,0,0
878,0,0
879,0,0
880,0,0
881,0,0
882,0,0
883,0,0
884,0,0
885,0,0
886,0,0
887,0,0
888,0,0
889,0,0
890,0,0
891,0,0
892,0,0
893,0,0
894,0,0
895,0,0
896,0,0
897,0,0
898,0,0
899,0,0
900,0,0
901,0,0
902,0,0
903,0,0
904,0,0
905,0,0
906,0,0
907,0,0
908,0,0
909,0,0
910,0,0
911,0,0
912,0,0
913,0,0
914,0,0
915,0,0
916,0,0
917,0,0
918,0,0
919,0,0
920,0,0
921,0,0
922,0,0
923,0,0
924,0,0
925,0,0
926,0,0
927,0,0
928,0,0
929,0,0
930,0,0
931,0,0
932,0,0
933,0,0
934,0,0
935,0,0
936,0,0
937,0,0
938,0,0
939,0,0
940,0,0
941,0,0
942,0,0
943,0,0
944,0,0
945,0,0
946,0,0
947,0,0
948,0,0
949,0,0
950,0,0
951,0,0
952,0,0
953,0,0
954,0,0
955,0,0
956,0,0
957,0,0
958,0,0
959,0,0
960,0,0
961,0,0
962,0,0
963,0,0
964,0,0
965,0,0
966,0,0
967,0,0
968,0,0
969,0,0
970,0,0
971,0,0
972,0,0
973,0,0
974,0,0
975,0,0
976,0,0
977,0,0
978,0,0
979,0,0
980,0,0
981,0,0
982,0,0
983,0,0
984,0,0
985,0,0
986,0,0
987,0,0
988,0,0
989,0,0
990,0,0
991,0,0
992,0,0
993,0,0
994,0,0
995,0,0
996,0,0
997,0,0
998,0,0
999,0,0
